0.51000 277151776.0
0.52000 279715168.0
0.53000 280404480.0
0.54000 281741184.0
0.55000 283583808.0
0.56000 285258976.0
0.57000 286648896.0
0.58000 287829600.0
0.59000 287920928.0
0.60000 287816192.0
0.61000 287805344.0
0.62000 286039456.0
0.63000 283033152.0
0.64000 277268864.0
0.65000 268569568.0
0.66000 257514800.0
0.67000 243398432.0
0.68000 226241232.0
0.69000 207488128.0
0.70000 187199088.0
0.71000 167601312.0
0.72000 149103328.0
0.73000 132169176.0
0.74000 117023824.0
0.75000 103723344.0
0.76000 91517400.0
0.77000 80665640.0
0.78000 71501272.0
0.79000 64231052.0
0.80000 58391880.0
0.81000 54167908.0
0.82000 50525492.0
0.83000 47429360.0
0.84000 44293140.0
0.85000 41253824.0
0.86000 37639132.0
0.87000 34255016.0
0.88000 30883856.0
0.89000 27964646.0
0.90000 25656826.0
0.91000 23952258.0
0.92000 22856668.0
0.93000 22229304.0
0.94000 21816840.0
0.95000 21298582.0
0.96000 20750184.0
0.97000 19756920.0
0.98000 18562624.0
0.99000 17252286.0
1.00000 16297451.0
1.01000 15103757.0
1.02000 14036499.0
1.03000 13083925.0
1.04000 12505538.0
1.05000 12218756.0
1.06000 12109649.0
1.07000 12187561.0
1.08000 12294558.0
1.09000 12197055.0
1.10000 12011845.0
1.11000 11673825.0
1.12000 10961918.0
1.13000 10210829.0
1.14000 9514143.0
1.15000 8610998.0
1.16000 7709790.0
1.17000 7168036.0
1.18000 6776537.0
1.19000 6551187.0
1.20000 6475894.0
1.21000 6511335.0
1.22000 6601760.0
1.23000 6692015.0
1.24000 6729321.0
1.25000 6680355.0
1.26000 6523527.0
1.27000 6247472.0
1.28000 5862940.0
1.29000 5418672.0
1.30000 4958218.0
1.31000 4531222.0
1.32000 4160701.0
1.33000 3880137.0
1.34000 3698370.0
1.35000 3608686.0
1.36000 3609663.0
1.37000 3682476.0
1.38000 3798544.0
1.39000 3906135.0
1.40000 3985467.0
1.41000 4004103.0
1.42000 3964359.0
1.43000 3843484.0
1.44000 3655315.0
1.45000 3414929.0
1.46000 3153465.0
1.47000 2881399.0
1.48000 2631401.0
1.49000 2432211.0
1.50000 2281824.0
1.51000 2196656.0
1.52000 2171198.0
1.53000 2188707.0
1.54000 2241558.0
1.55000 2309111.0
1.56000 2364314.0
1.57000 2402133.0
1.58000 2400989.0
1.59000 2360845.0
1.60000 2275630.0
1.61000 2159981.0
1.62000 2008237.0
1.63000 1852825.0
1.64000 1694573.0
1.65000 1547833.0
1.66000 1430109.0
1.67000 1338305.0
1.68000 1286273.0
1.69000 1272353.0
1.70000 1296040.0
1.71000 1344621.0
1.72000 1402915.0
1.73000 1457181.0
1.74000 1505582.0
1.75000 1535280.0
1.76000 1537446.0
1.77000 1508635.0
1.78000 1448336.0
1.79000 1363159.0
1.80000 1258134.0
1.81000 1149823.0
1.82000 1046125.0
1.83000 962579.0
1.84000 898623.0
1.85000 862725.0
1.86000 853644.0
1.87000 870223.0
1.88000 908144.0
1.89000 954257.0
1.90000 1002525.0
1.91000 1045836.0
1.92000 1069371.0
1.93000 1075076.0
1.94000 1059720.0
1.95000 1019135.0
1.96000 959062.0
1.97000 882775.0
1.98000 802710.0
1.99000 723342.0
2.00000 650267.0
2.01000 593571.0
2.02000 557179.0
2.03000 537973.0
2.04000 537060.0
2.05000 553901.0
2.06000 579026.0
2.07000 605570.0
2.08000 636342.0
2.09000 662279.0
2.10000 673935.0
2.11000 673990.0
2.12000 661106.0
2.13000 633940.0
2.14000 598894.0
2.15000 554000.0
2.16000 504071.0
2.17000 454561.0
2.18000 412094.0
2.19000 377956.0
2.20000 353798.0
2.21000 345440.0
2.22000 347001.0
2.23000 361142.0
2.24000 384258.0
2.25000 408641.0
2.26000 434036.0
2.27000 456179.0
2.28000 469406.0
2.29000 470621.0
2.30000 464522.0
2.31000 445338.0
2.32000 417162.0
2.33000 383041.0
2.34000 346507.0
2.35000 309259.0
2.36000 275446.0
2.37000 249358.0
2.38000 230603.0
2.39000 221312.0
2.40000 220323.0
2.41000 227469.0
2.42000 240939.0
2.43000 256991.0
2.44000 273025.0
2.45000 287915.0
2.46000 295128.0
2.47000 298949.0
2.48000 294607.0
2.49000 285153.0
2.50000 268563.0
2.51000 248008.0
2.52000 223830.0
2.53000 201395.0
2.54000 177949.0
2.55000 158955.0
2.56000 144400.0
2.57000 136462.0
2.58000 134605.0
2.59000 137712.0
2.60000 145981.0
2.61000 157591.0
2.62000 171505.0
2.63000 182948.0
2.64000 193714.0
2.65000 199954.0
2.66000 201218.0
2.67000 197733.0
2.68000 189217.0
2.69000 176173.0
2.70000 161783.0
2.71000 143699.0
2.72000 127616.0
2.73000 112574.0
2.74000 100991.0
2.75000 93073.0
2.76000 90586.0
2.77000 92594.0
2.78000 98202.0
2.79000 107053.0
2.80000 116722.0
2.81000 126644.0
2.82000 134416.0
2.83000 138979.0
2.84000 141382.0
2.85000 139182.0
2.86000 133471.0
2.87000 124640.0
2.88000 114027.0
2.89000 102131.0
2.90000 89218.0
2.91000 78268.0
2.92000 69786.0
2.93000 63329.0
2.94000 60119.0
2.95000 61132.0
2.96000 64624.0
2.97000 70146.0
2.98000 77811.0
2.99000 85223.0
3.00000 92047.0
3.01000 97129.0
3.02000 99837.0
3.03000 99446.0
3.04000 96319.0
3.05000 91337.0
3.06000 83513.0
3.07000 75290.0
3.08000 66007.0
3.09000 56750.0
3.10000 49583.0
3.11000 44183.0
3.12000 40275.0
3.13000 39558.0
3.14000 40849.0
3.15000 43580.0
3.16000 48268.0
3.17000 53182.0
3.18000 58429.0
3.19000 62296.0
3.20000 65170.0
3.21000 65825.0
3.22000 65346.0
3.23000 62564.0
3.24000 58780.0
3.25000 53550.0
3.26000 48021.0
3.27000 41616.0
3.28000 36034.0
3.29000 31339.0
3.30000 28091.0
3.31000 26334.0
3.32000 25918.0
3.33000 27501.0
3.34000 29852.0
3.35000 33170.0
3.36000 36958.0
3.37000 40310.0
3.38000 43132.0
3.39000 45196.0
3.40000 46217.0
3.41000 45450.0
3.42000 43956.0
3.43000 40835.0
3.44000 37197.0
3.45000 33072.0
3.46000 29005.0
3.47000 24562.0
3.48000 21444.0
3.49000 19050.0
3.50000 17801.0
3.51000 17349.0
3.52000 18147.0
3.53000 19866.0
3.54000 21291.0
3.55000 24076.0
3.56000 26053.0
3.57000 28371.0
3.58000 29480.0
3.59000 29562.0
3.60000 28773.0
3.61000 27469.0
3.62000 25791.0
3.63000 23092.0
3.64000 20396.0
3.65000 18142.0
3.66000 15311.0
3.67000 13444.0
3.68000 12050.0
3.69000 11357.0
3.70000 11795.0
3.71000 12746.0
3.72000 14390.0
3.73000 16397.0
3.74000 18351.0
3.75000 20423.0
3.76000 21783.0
3.77000 22936.0
3.78000 23386.0
3.79000 22737.0
3.80000 21825.0
3.81000 20033.0
3.82000 17604.0
3.83000 15232.0
3.84000 13191.0
3.85000 11040.0
3.86000 9354.0
3.87000 8434.0
3.88000 8470.0
3.89000 8683.0
3.90000 9791.0
3.91000 11041.0
3.92000 12916.0
3.93000 14524.0
3.94000 16001.0
3.95000 17324.0
3.96000 17711.0
3.97000 17731.0
3.98000 17105.0
3.99000 15955.0
4.00000 14391.0
4.01000 12607.0
4.02000 10758.0
4.03000 9025.0
4.04000 7297.0
4.05000 6278.0
4.06000 5823.0
4.07000 5773.0
4.08000 6308.0
4.09000 7275.0
4.10000 8568.0
4.11000 10061.0
4.12000 11564.0
4.13000 12903.0
4.14000 13987.0
4.15000 14520.0
4.16000 14701.0
4.17000 14371.0
4.18000 13663.0
4.19000 12246.0
4.20000 10719.0
4.21000 9370.0
4.22000 7795.0
4.23000 6228.0
4.24000 5303.0
4.25000 4846.0
4.26000 4724.0
4.27000 5118.0
4.28000 6342.0
4.29000 7602.0
4.30000 8904.0
4.31000 10846.0
4.32000 12150.0
4.33000 13501.0
4.34000 14354.0
4.35000 14451.0
4.36000 14122.0
4.37000 13269.0
4.38000 12208.0
4.39000 10435.0
4.40000 9040.0
4.41000 7817.0
4.42000 7056.0
4.43000 7216.0
4.44000 8561.0
4.45000 11252.0
4.46000 15606.0
4.47000 21985.0
4.48000 30499.0
4.49000 40954.0
4.50000 52564.0
4.51000 66372.0
4.52000 81076.0
4.53000 96645.0
4.54000 112142.0
4.55000 126889.0
4.56000 140837.0
4.57000 154371.0
4.58000 166454.0
4.59000 174344.0
4.60000 181600.0
4.61000 184500.0
4.62000 185751.0
4.63000 183249.0
4.64000 176938.0
4.65000 169146.0
4.66000 159168.0
4.67000 145590.0
4.68000 131485.0
4.69000 117261.0
4.70000 100740.0
4.71000 85756.0
4.72000 70933.0
4.73000 56719.0
4.74000 44473.0
4.75000 33605.0
4.76000 25151.0
4.77000 18802.0
4.78000 14471.0
4.79000 11880.0
4.80000 10836.0
4.81000 10730.0
4.82000 11552.0
4.83000 13126.0
4.84000 14934.0
4.85000 16518.0
4.86000 17975.0
4.87000 18244.0
4.88000 18556.0
4.89000 17976.0
4.90000 16902.0
4.91000 15179.0
4.92000 13556.0
4.93000 11543.0
4.94000 9344.0
4.95000 7523.0
4.96000 6334.0
4.97000 5119.0
4.98000 4565.0
4.99000 4407.0
5.00000 4837.0
5.01000 5175.0
5.02000 5797.0
5.03000 6836.0
5.04000 7862.0
5.05000 8246.0
5.06000 8956.0
5.07000 9086.0
5.08000 8795.0
5.09000 8541.0
5.10000 7790.0
5.11000 7254.0
5.12000 6370.0
5.13000 5502.0
5.14000 4518.0
5.15000 3885.0
5.16000 3126.0
5.17000 2914.0
5.18000 2753.0
5.19000 2894.0
5.20000 3150.0
5.21000 3487.0
5.22000 4133.0
5.23000 4524.0
5.24000 5030.0
5.25000 5479.0
5.26000 5686.0
5.27000 5746.0
5.28000 5736.0
5.29000 5355.0
5.30000 4910.0
5.31000 4485.0
5.32000 3919.0
5.33000 3443.0
5.34000 2902.0
5.35000 2618.0
5.36000 2274.0
5.37000 2097.0
5.38000 2239.0
5.39000 2238.0
5.40000 2668.0
5.41000 2903.0
5.42000 3235.0
5.43000 3484.0
5.44000 3779.0
5.45000 3947.0
5.46000 4173.0
5.47000 4057.0
5.48000 3764.0
5.49000 3486.0
5.50000 3361.0
5.51000 2841.0
5.52000 2509.0
5.53000 2256.0
5.54000 1930.0
5.55000 1766.0
5.56000 1654.0
5.57000 1650.0
5.58000 1653.0
5.59000 1770.0
5.60000 2029.0
5.61000 2210.0
5.62000 2448.0
5.63000 2597.0
5.64000 2809.0
5.65000 2835.0
5.66000 2780.0
5.67000 2799.0
5.68000 2702.0
5.69000 2413.0
5.70000 2210.0
5.71000 2019.0
5.72000 1810.0
5.73000 1648.0
5.74000 1544.0
5.75000 1418.0
5.76000 1486.0
5.77000 1464.0
5.78000 1552.0
5.79000 1712.0
5.80000 1880.0
5.81000 1965.0
5.82000 2069.0
5.83000 2172.0
5.84000 2232.0
5.85000 2139.0
5.86000 2021.0
5.87000 1934.0
5.88000 1779.0
5.89000 1581.0
5.90000 1432.0
5.91000 1271.0
5.92000 1193.0
5.93000 1180.0
5.94000 1115.0
5.95000 1169.0
5.96000 1240.0
5.97000 1330.0
5.98000 1477.0
5.99000 1553.0
6.00000 1554.0
6.01000 1758.0
6.02000 1736.0
6.03000 1564.0
6.04000 1624.0
6.05000 1616.0
6.06000 1523.0
6.07000 1300.0
6.08000 1243.0
6.09000 1088.0
6.10000 1051.0
6.11000 1052.0
6.12000 990.0
6.13000 1011.0
6.14000 991.0
6.15000 1137.0
6.16000 1197.0
6.17000 1316.0
6.18000 1281.0
6.19000 1317.0
6.20000 1399.0
6.21000 1374.0
6.22000 1392.0
6.23000 1284.0
6.24000 1199.0
6.25000 1214.0
6.26000 1085.0
6.27000 942.0
6.28000 896.0
6.29000 841.0
6.30000 816.0
6.31000 795.0
6.32000 828.0
6.33000 863.0
6.34000 917.0
6.35000 1052.0
6.36000 986.0
6.37000 1035.0
6.38000 1140.0
6.39000 1183.0
6.40000 1111.0
6.41000 1157.0
6.42000 1056.0
6.43000 1022.0
6.44000 907.0
6.45000 863.0
6.46000 836.0
6.47000 793.0
6.48000 708.0
6.49000 694.0
6.50000 708.0
6.51000 796.0
6.52000 746.0
6.53000 814.0
6.54000 887.0
6.55000 905.0
6.56000 969.0
6.57000 922.0
6.58000 961.0
6.59000 983.0
6.60000 912.0
6.61000 855.0
6.62000 842.0
6.63000 761.0
6.64000 658.0
6.65000 672.0
6.66000 586.0
6.67000 573.0
6.68000 563.0
6.69000 569.0
6.70000 620.0
6.71000 651.0
6.72000 705.0
6.73000 745.0
6.74000 781.0
6.75000 823.0
6.76000 833.0
6.77000 818.0
6.78000 799.0
6.79000 774.0
6.80000 776.0
6.81000 748.0
6.82000 708.0
6.83000 632.0
6.84000 607.0
6.85000 563.0
6.86000 544.0
6.87000 545.0
6.88000 563.0
6.89000 618.0
6.90000 602.0
6.91000 619.0
6.92000 674.0
6.93000 742.0
6.94000 762.0
6.95000 763.0
6.96000 734.0
6.97000 707.0
6.98000 710.0
6.99000 669.0
7.00000 610.0
7.01000 594.0
7.02000 559.0
7.03000 496.0
7.04000 461.0
7.05000 400.0
7.06000 475.0
7.07000 511.0
7.08000 504.0
7.09000 518.0
7.10000 539.0
7.11000 611.0
7.12000 572.0
7.13000 596.0
7.14000 624.0
7.15000 602.0
7.16000 633.0
7.17000 578.0
7.18000 511.0
7.19000 500.0
7.20000 493.0
7.21000 451.0
7.22000 415.0
7.23000 415.0
7.24000 391.0
7.25000 445.0
7.26000 471.0
7.27000 484.0
7.28000 493.0
7.29000 515.0
7.30000 536.0
7.31000 539.0
7.32000 540.0
7.33000 530.0
7.34000 558.0
7.35000 542.0
7.36000 522.0
7.37000 471.0
7.38000 469.0
7.39000 448.0
7.40000 396.0
7.41000 444.0
7.42000 345.0
7.43000 393.0
7.44000 364.0
7.45000 447.0
7.46000 400.0
7.47000 391.0
7.48000 449.0
7.49000 440.0
7.50000 445.0
7.51000 482.0
7.52000 455.0
7.53000 454.0
7.54000 466.0
7.55000 457.0
7.56000 422.0
7.57000 419.0
7.58000 369.0
7.59000 393.0
7.60000 384.0
7.61000 344.0
7.62000 384.0
7.63000 347.0
7.64000 346.0
7.65000 377.0
7.66000 355.0
7.67000 426.0
7.68000 410.0
7.69000 471.0
7.70000 425.0
7.71000 425.0
7.72000 417.0
7.73000 386.0
7.74000 402.0
7.75000 388.0
7.76000 401.0
7.77000 365.0
7.78000 380.0
7.79000 324.0
7.80000 356.0
7.81000 285.0
7.82000 324.0
7.83000 342.0
7.84000 328.0
7.85000 369.0
7.86000 372.0
7.87000 365.0
7.88000 332.0
7.89000 370.0
7.90000 364.0
7.91000 385.0
7.92000 382.0
7.93000 347.0
7.94000 362.0
7.95000 383.0
7.96000 331.0
7.97000 332.0
7.98000 304.0
7.99000 295.0
8.00000 307.0
8.01000 320.0
8.02000 334.0
8.03000 330.0
8.04000 334.0
8.05000 351.0
8.06000 344.0
8.07000 345.0
8.08000 381.0
8.09000 340.0
8.10000 383.0
8.11000 340.0
8.12000 319.0
8.13000 326.0
8.14000 307.0
8.15000 277.0
8.16000 305.0
8.17000 276.0
8.18000 288.0
8.19000 278.0
8.20000 315.0
8.21000 289.0
8.22000 295.0
8.23000 316.0
8.24000 299.0
8.25000 336.0
8.26000 343.0
8.27000 345.0
8.28000 317.0
8.29000 329.0
8.30000 310.0
8.31000 318.0
8.32000 301.0
8.33000 315.0
8.34000 278.0
8.35000 285.0
8.36000 289.0
8.37000 270.0
8.38000 264.0
8.39000 267.0
8.40000 290.0
8.41000 282.0
8.42000 332.0
8.43000 273.0
8.44000 280.0
8.45000 346.0
8.46000 273.0
8.47000 288.0
8.48000 297.0
8.49000 304.0
8.50000 288.0
8.51000 313.0
8.52000 302.0
8.53000 269.0
8.54000 250.0
8.55000 293.0
8.56000 269.0
8.57000 271.0
8.58000 280.0
8.59000 251.0
8.60000 266.0
8.61000 299.0
8.62000 294.0
8.63000 288.0
8.64000 329.0
8.65000 319.0
8.66000 304.0
8.67000 281.0
8.68000 284.0
8.69000 315.0
8.70000 302.0
8.71000 281.0
8.72000 256.0
8.73000 312.0
8.74000 321.0
8.75000 262.0
8.76000 305.0
8.77000 312.0
8.78000 284.0
8.79000 345.0
8.80000 302.0
8.81000 321.0
8.82000 327.0
8.83000 330.0
8.84000 318.0
8.85000 350.0
8.86000 335.0
8.87000 359.0
8.88000 330.0
8.89000 339.0
8.90000 357.0
8.91000 314.0
8.92000 356.0
8.93000 330.0
8.94000 374.0
8.95000 333.0
8.96000 385.0
8.97000 401.0
8.98000 411.0
8.99000 502.0
9.00000 507.0
9.01000 511.0
9.02000 582.0
9.03000 615.0
9.04000 630.0
9.05000 606.0
9.06000 655.0
9.07000 662.0
9.08000 715.0
9.09000 768.0
9.10000 683.0
9.11000 679.0
9.12000 684.0
9.13000 664.0
9.14000 645.0
9.15000 632.0
9.16000 579.0
9.17000 578.0
9.18000 530.0
9.19000 518.0
9.20000 465.0
9.21000 452.0
9.22000 409.0
9.23000 369.0
9.24000 380.0
9.25000 386.0
9.26000 319.0
9.27000 360.0
9.28000 300.0
9.29000 314.0
9.30000 299.0
9.31000 264.0
9.32000 267.0
9.33000 288.0
9.34000 254.0
9.35000 243.0
9.36000 263.0
9.37000 232.0
9.38000 225.0
9.39000 221.0
9.40000 263.0
9.41000 236.0
9.42000 213.0
9.43000 198.0
9.44000 240.0
9.45000 227.0
9.46000 188.0
9.47000 201.0
9.48000 251.0
9.49000 205.0
9.50000 213.0
9.51000 242.0
9.52000 233.0
9.53000 217.0
9.54000 215.0
9.55000 251.0
9.56000 237.0
9.57000 238.0
9.58000 227.0
9.59000 216.0
9.60000 206.0
9.61000 240.0
9.62000 237.0
9.63000 194.0
9.64000 185.0
9.65000 191.0
9.66000 216.0
9.67000 213.0
9.68000 179.0
9.69000 198.0
9.70000 179.0
9.71000 206.0
9.72000 208.0
9.73000 186.0
9.74000 230.0
9.75000 185.0
9.76000 209.0
9.77000 208.0
9.78000 195.0
9.79000 201.0
9.80000 195.0
9.81000 201.0
9.82000 195.0
9.83000 209.0
9.84000 167.0
9.85000 189.0
9.86000 179.0
9.87000 176.0
9.88000 182.0
9.89000 194.0
9.90000 192.0
9.91000 204.0
9.92000 251.0
9.93000 191.0
9.94000 193.0
9.95000 188.0
9.96000 185.0
9.97000 202.0
9.98000 209.0
9.99000 191.0
10.00000 188.0
10.01000 201.0
10.02000 191.0
10.03000 193.0
10.04000 203.0
10.05000 198.0
10.06000 194.0
10.07000 204.0
10.08000 200.0
10.09000 159.0
10.10000 184.0
10.11000 228.0
10.12000 195.0
10.13000 180.0
10.14000 183.0
10.15000 201.0
10.16000 176.0
10.17000 187.0
10.18000 187.0
10.19000 175.0
10.20000 179.0
10.21000 176.0
10.22000 198.0
10.23000 152.0
10.24000 212.0
10.25000 183.0
10.26000 158.0
10.27000 204.0
10.28000 177.0
10.29000 185.0
10.30000 185.0
10.31000 201.0
10.32000 182.0
10.33000 172.0
10.34000 159.0
10.35000 179.0
10.36000 213.0
10.37000 207.0
10.38000 178.0
10.39000 167.0
10.40000 180.0
10.41000 185.0
10.42000 156.0
10.43000 161.0
10.44000 169.0
10.45000 213.0
10.46000 177.0
10.47000 163.0
10.48000 172.0
10.49000 163.0
10.50000 161.0
10.51000 199.0
10.52000 190.0
10.53000 177.0
10.54000 172.0
10.55000 154.0
10.56000 161.0
10.57000 186.0
10.58000 172.0
10.59000 169.0
10.60000 175.0
10.61000 179.0
10.62000 176.0
10.63000 173.0
10.64000 162.0
10.65000 178.0
10.66000 185.0
10.67000 175.0
10.68000 169.0
10.69000 147.0
10.70000 163.0
10.71000 172.0
10.72000 156.0
10.73000 167.0
10.74000 182.0
10.75000 160.0
10.76000 170.0
10.77000 157.0
10.78000 158.0
10.79000 163.0
10.80000 173.0
10.81000 169.0
10.82000 153.0
10.83000 180.0
10.84000 163.0
10.85000 177.0
10.86000 154.0
10.87000 164.0
10.88000 163.0
10.89000 184.0
10.90000 172.0
10.91000 159.0
10.92000 140.0
10.93000 155.0
10.94000 152.0
10.95000 166.0
10.96000 153.0
10.97000 166.0
10.98000 146.0
10.99000 147.0
11.00000 159.0
11.01000 169.0
11.02000 171.0
11.03000 162.0
11.04000 157.0
11.05000 162.0
11.06000 170.0
11.07000 158.0
11.08000 175.0
11.09000 162.0
11.10000 169.0
11.11000 159.0
11.12000 168.0
11.13000 157.0
11.14000 149.0
11.15000 170.0
11.16000 160.0
11.17000 172.0
11.18000 174.0
11.19000 147.0
11.20000 169.0
11.21000 157.0
11.22000 159.0
11.23000 152.0
11.24000 160.0
11.25000 165.0
11.26000 152.0
11.27000 184.0
11.28000 148.0
11.29000 157.0
11.30000 142.0
11.31000 144.0
11.32000 143.0
11.33000 164.0
11.34000 143.0
11.35000 136.0
11.36000 158.0
11.37000 135.0
11.38000 134.0
11.39000 136.0
11.40000 150.0
11.41000 155.0
11.42000 169.0
11.43000 152.0
11.44000 158.0
11.45000 148.0
11.46000 138.0
11.47000 149.0
11.48000 159.0
11.49000 153.0
11.50000 180.0
11.51000 150.0
11.52000 144.0
11.53000 137.0
11.54000 174.0
11.55000 159.0
11.56000 150.0
11.57000 137.0
11.58000 116.0
11.59000 160.0
11.60000 157.0
11.61000 148.0
11.62000 131.0
11.63000 141.0
11.64000 141.0
11.65000 158.0
11.66000 137.0
11.67000 157.0
11.68000 159.0
11.69000 133.0
11.70000 137.0
11.71000 160.0
11.72000 149.0
11.73000 160.0
11.74000 149.0
11.75000 146.0
11.76000 151.0
11.77000 132.0
11.78000 147.0
11.79000 135.0
11.80000 141.0
11.81000 150.0
11.82000 135.0
11.83000 182.0
11.84000 138.0
11.85000 151.0
11.86000 150.0
11.87000 145.0
11.88000 126.0
11.89000 169.0
11.90000 130.0
11.91000 148.0
11.92000 125.0
11.93000 166.0
11.94000 140.0
11.95000 150.0
11.96000 129.0
11.97000 154.0
11.98000 155.0
11.99000 162.0
12.00000 144.0
12.01000 125.0
12.02000 140.0
12.03000 144.0
12.04000 162.0
12.05000 145.0
12.06000 152.0
12.07000 137.0
12.08000 135.0
12.09000 127.0
12.10000 160.0
12.11000 140.0
12.12000 112.0
12.13000 149.0
12.14000 143.0
12.15000 139.0
12.16000 130.0
12.17000 125.0
12.18000 148.0
12.19000 129.0
12.20000 139.0
12.21000 138.0
12.22000 158.0
12.23000 147.0
12.24000 150.0
12.25000 133.0
12.26000 163.0
12.27000 138.0
12.28000 137.0
12.29000 150.0
12.30000 128.0
12.31000 139.0
12.32000 148.0
12.33000 139.0
12.34000 141.0
12.35000 146.0
12.36000 150.0
12.37000 122.0
12.38000 126.0
12.39000 148.0
12.40000 136.0
12.41000 128.0
12.42000 118.0
12.43000 157.0
12.44000 131.0
12.45000 153.0
12.46000 133.0
12.47000 140.0
12.48000 140.0
12.49000 141.0
12.50000 133.0
12.51000 144.0
12.52000 121.0
12.53000 127.0
12.54000 124.0
12.55000 128.0
12.56000 137.0
12.57000 156.0
12.58000 128.0
12.59000 110.0
12.60000 137.0
12.61000 123.0
12.62000 148.0
12.63000 130.0
12.64000 139.0
12.65000 118.0
12.66000 153.0
12.67000 128.0
12.68000 130.0
12.69000 128.0
12.70000 146.0
12.71000 134.0
12.72000 118.0
12.73000 161.0
12.74000 143.0
12.75000 150.0
12.76000 134.0
12.77000 133.0
12.78000 138.0
12.79000 111.0
12.80000 122.0
12.81000 151.0
12.82000 143.0
12.83000 141.0
12.84000 120.0
12.85000 134.0
12.86000 141.0
12.87000 123.0
12.88000 130.0
12.89000 132.0
12.90000 125.0
12.91000 122.0
12.92000 127.0
12.93000 138.0
12.94000 143.0
12.95000 119.0
12.96000 104.0
12.97000 146.0
12.98000 144.0
12.99000 151.0
13.00000 127.0
13.01000 121.0
13.02000 121.0
13.03000 124.0
13.04000 129.0
13.05000 147.0
13.06000 132.0
13.07000 143.0
13.08000 138.0
13.09000 133.0
13.10000 139.0
13.11000 132.0
13.12000 133.0
13.13000 122.0
13.14000 128.0
13.15000 130.0
13.16000 114.0
13.17000 141.0
13.18000 162.0
13.19000 136.0
13.20000 136.0
13.21000 121.0
13.22000 123.0
13.23000 138.0
13.24000 144.0
13.25000 115.0
13.26000 146.0
13.27000 123.0
13.28000 133.0
13.29000 135.0
13.30000 121.0
13.31000 121.0
13.32000 107.0
13.33000 104.0
13.34000 129.0
13.35000 146.0
13.36000 126.0
13.37000 115.0
13.38000 123.0
13.39000 141.0
13.40000 146.0
13.41000 110.0
13.42000 112.0
13.43000 119.0
13.44000 128.0
13.45000 125.0
13.46000 104.0
13.47000 122.0
13.48000 132.0
13.49000 129.0
13.50000 141.0
13.51000 157.0
13.52000 124.0
13.53000 134.0
13.54000 130.0
13.55000 114.0
13.56000 119.0
13.57000 128.0
13.58000 137.0
13.59000 143.0
13.60000 121.0
13.61000 132.0
13.62000 126.0
13.63000 105.0
13.64000 115.0
13.65000 141.0
13.66000 117.0
13.67000 137.0
13.68000 120.0
13.69000 127.0
13.70000 110.0
13.71000 128.0
13.72000 143.0
13.73000 132.0
13.74000 120.0
13.75000 119.0
13.76000 136.0
13.77000 117.0
13.78000 122.0
13.79000 126.0
13.80000 146.0
13.81000 137.0
13.82000 130.0
13.83000 147.0
13.84000 131.0
13.85000 131.0
13.86000 137.0
13.87000 122.0
13.88000 114.0
13.89000 132.0
13.90000 135.0
13.91000 135.0
13.92000 139.0
13.93000 139.0
13.94000 141.0
13.95000 125.0
13.96000 128.0
13.97000 119.0
13.98000 119.0
13.99000 122.0
14.00000 99.0
14.01000 133.0
14.02000 112.0
14.03000 114.0
14.04000 122.0
14.05000 103.0
14.06000 114.0
14.07000 112.0
14.08000 112.0
14.09000 134.0
14.10000 130.0
14.11000 120.0
14.12000 133.0
14.13000 104.0
14.14000 135.0
14.15000 100.0
14.16000 136.0
14.17000 113.0
14.18000 115.0
14.19000 120.0
14.20000 129.0
14.21000 97.0
14.22000 105.0
14.23000 130.0
14.24000 112.0
14.25000 109.0
14.26000 133.0
14.27000 107.0
14.28000 122.0
14.29000 127.0
14.30000 121.0
14.31000 137.0
14.32000 120.0
14.33000 126.0
14.34000 111.0
14.35000 125.0
14.36000 122.0
14.37000 115.0
14.38000 131.0
14.39000 114.0
14.40000 123.0
14.41000 120.0
14.42000 127.0
14.43000 129.0
14.44000 106.0
14.45000 132.0
14.46000 113.0
14.47000 121.0
14.48000 119.0
14.49000 126.0
14.50000 124.0
14.51000 119.0
14.52000 127.0
14.53000 117.0
14.54000 141.0
14.55000 116.0
14.56000 113.0
14.57000 115.0
14.58000 127.0
14.59000 107.0
14.60000 107.0
14.61000 97.0
14.62000 118.0
14.63000 121.0
14.64000 104.0
14.65000 123.0
14.66000 106.0
14.67000 110.0
14.68000 127.0
14.69000 105.0
14.70000 117.0
14.71000 103.0
14.72000 113.0
14.73000 130.0
14.74000 112.0
14.75000 114.0
14.76000 133.0
14.77000 106.0
14.78000 103.0
14.79000 126.0
14.80000 115.0
14.81000 124.0
14.82000 108.0
14.83000 108.0
14.84000 120.0
14.85000 119.0
14.86000 127.0
14.87000 120.0
14.88000 95.0
14.89000 106.0
14.90000 104.0
14.91000 105.0
14.92000 113.0
14.93000 98.0
14.94000 129.0
14.95000 109.0
14.96000 107.0
14.97000 118.0
14.98000 91.0
14.99000 118.0
