0.51000 8729750.0
0.52000 8775562.0
0.53000 8877134.0
0.54000 8815498.0
0.55000 8935003.0
0.56000 8939825.0
0.57000 9038835.0
0.58000 9039890.0
0.59000 9006586.0
0.60000 8977802.0
0.61000 8902904.0
0.62000 8717543.0
0.63000 8591708.0
0.64000 8372742.0
0.65000 8055217.0
0.66000 7650436.0
0.67000 7118767.0
0.68000 6613168.0
0.69000 5859066.0
0.70000 5176244.0
0.71000 4397426.0
0.72000 3574635.0
0.73000 3020585.0
0.74000 2604154.0
0.75000 2312108.0
0.76000 2130835.0
0.77000 2018576.0
0.78000 1940254.0
0.79000 1860347.0
0.80000 1767617.0
0.81000 1657215.0
0.82000 1523277.0
0.83000 1375617.0
0.84000 1223430.0
0.85000 1081277.0
0.86000 945583.0
0.87000 834467.0
0.88000 744403.0
0.89000 679133.0
0.90000 633754.0
0.91000 609278.0
0.92000 600096.0
0.93000 597444.0
0.94000 600455.0
0.95000 605705.0
0.96000 605373.0
0.97000 599273.0
0.98000 586391.0
0.99000 564152.0
1.00000 535996.0
1.01000 501981.0
1.02000 462306.0
1.03000 419809.0
1.04000 380763.0
1.05000 338770.0
1.06000 304378.0
1.07000 273967.0
1.08000 250679.0
1.09000 232455.0
1.10000 221227.0
1.11000 214883.0
1.12000 213552.0
1.13000 216110.0
1.14000 219950.0
1.15000 224360.0
1.16000 228477.0
1.17000 232438.0
1.18000 233623.0
1.19000 232149.0
1.20000 229450.0
1.21000 222755.0
1.22000 214106.0
1.23000 203172.0
1.24000 190355.0
1.25000 176258.0
1.26000 161584.0
1.27000 147914.0
1.28000 133897.0
1.29000 122567.0
1.30000 111715.0
1.31000 103521.0
1.32000 97374.0
1.33000 92655.0
1.34000 90930.0
1.35000 90663.0
1.36000 91420.0
1.37000 94294.0
1.38000 96978.0
1.39000 100198.0
1.40000 101937.0
1.41000 104547.0
1.42000 106004.0
1.43000 106558.0
1.44000 105505.0
1.45000 103839.0
1.46000 100179.0
1.47000 96296.0
1.48000 90803.0
1.49000 84780.0
1.50000 78937.0
1.51000 72590.0
1.52000 66431.0
1.53000 60667.0
1.54000 55766.0
1.55000 51287.0
1.56000 48083.0
1.57000 45529.0
1.58000 44750.0
1.59000 44546.0
1.60000 44110.0
1.61000 45814.0
1.62000 47182.0
1.63000 48845.0
1.64000 50936.0
1.65000 52990.0
1.66000 54513.0
1.67000 55239.0
1.68000 55987.0
1.69000 55737.0
1.70000 54878.0
1.71000 54016.0
1.72000 51698.0
1.73000 50005.0
1.74000 47021.0
1.75000 44155.0
1.76000 40771.0
1.77000 37511.0
1.78000 34759.0
1.79000 31912.0
1.80000 29332.0
1.81000 27464.0
1.82000 25585.0
1.83000 24979.0
1.84000 24634.0
1.85000 24687.0
1.86000 25010.0
1.87000 25800.0
1.88000 26281.0
1.89000 27646.0
1.90000 28799.0
1.91000 30043.0
1.92000 30577.0
1.93000 31471.0
1.94000 31801.0
1.95000 31502.0
1.96000 31223.0
1.97000 30588.0
1.98000 29790.0
1.99000 28082.0
2.00000 26359.0
2.01000 24568.0
2.02000 22753.0
2.03000 21114.0
2.04000 19058.0
2.05000 17513.0
2.06000 16058.0
2.07000 15044.0
2.08000 14096.0
2.09000 13720.0
2.10000 13402.0
2.11000 13118.0
2.12000 13364.0
2.13000 13774.0
2.14000 14453.0
2.15000 14841.0
2.16000 15805.0
2.17000 16135.0
2.18000 16630.0
2.19000 17145.0
2.20000 17252.0
2.21000 17636.0
2.22000 17548.0
2.23000 17089.0
2.24000 16706.0
2.25000 15830.0
2.26000 15029.0
2.27000 14084.0
2.28000 12836.0
2.29000 11773.0
2.30000 10931.0
2.31000 9915.0
2.32000 9048.0
2.33000 8515.0
2.34000 7877.0
2.35000 7428.0
2.36000 7188.0
2.37000 7057.0
2.38000 7239.0
2.39000 7448.0
2.40000 7756.0
2.41000 8181.0
2.42000 8684.0
2.43000 9029.0
2.44000 9441.0
2.45000 9750.0
2.46000 10079.0
2.47000 10329.0
2.48000 10344.0
2.49000 10059.0
2.50000 9953.0
2.51000 9873.0
2.52000 9312.0
2.53000 8816.0
2.54000 8318.0
2.55000 7576.0
2.56000 6896.0
2.57000 6445.0
2.58000 5850.0
2.59000 5364.0
2.60000 4928.0
2.61000 4667.0
2.62000 4455.0
2.63000 4281.0
2.64000 4458.0
2.65000 4289.0
2.66000 4499.0
2.67000 4805.0
2.68000 5252.0
2.69000 5412.0
2.70000 5856.0
2.71000 5949.0
2.72000 6296.0
2.73000 6359.0
2.74000 6540.0
2.75000 6699.0
2.76000 6724.0
2.77000 6519.0
2.78000 6224.0
2.79000 5966.0
2.80000 5693.0
2.81000 5234.0
2.82000 4859.0
2.83000 4516.0
2.84000 4123.0
2.85000 3766.0
2.86000 3388.0
2.87000 3115.0
2.88000 2812.0
2.89000 2737.0
2.90000 2565.0
2.91000 2602.0
2.92000 2600.0
2.93000 2800.0
2.94000 2951.0
2.95000 3109.0
2.96000 3352.0
2.97000 3592.0
2.98000 3781.0
2.99000 3950.0
3.00000 4137.0
3.01000 4083.0
3.02000 4196.0
3.03000 4148.0
3.04000 4110.0
3.05000 3970.0
3.06000 3716.0
3.07000 3552.0
3.08000 3319.0
3.09000 2997.0
3.10000 2660.0
3.11000 2421.0
3.12000 2131.0
3.13000 1977.0
3.14000 1787.0
3.15000 1672.0
3.16000 1506.0
3.17000 1426.0
3.18000 1423.0
3.19000 1555.0
3.20000 1561.0
3.21000 1639.0
3.22000 1768.0
3.23000 1903.0
3.24000 2023.0
3.25000 2208.0
3.26000 2320.0
3.27000 2510.0
3.28000 2500.0
3.29000 2466.0
3.30000 2479.0
3.31000 2499.0
3.32000 2428.0
3.33000 2365.0
3.34000 2193.0
3.35000 2136.0
3.36000 1950.0
3.37000 1759.0
3.38000 1598.0
3.39000 1456.0
3.40000 1288.0
3.41000 1165.0
3.42000 1103.0
3.43000 971.0
3.44000 934.0
3.45000 829.0
3.46000 818.0
3.47000 904.0
3.48000 956.0
3.49000 1003.0
3.50000 1178.0
3.51000 1223.0
3.52000 1366.0
3.53000 1450.0
3.54000 1467.0
3.55000 1582.0
3.56000 1627.0
3.57000 1697.0
3.58000 1723.0
3.59000 1606.0
3.60000 1597.0
3.61000 1578.0
3.62000 1514.0
3.63000 1359.0
3.64000 1203.0
3.65000 1086.0
3.66000 982.0
3.67000 904.0
3.68000 782.0
3.69000 685.0
3.70000 616.0
3.71000 550.0
3.72000 508.0
3.73000 559.0
3.74000 571.0
3.75000 596.0
3.76000 641.0
3.77000 735.0
3.78000 759.0
3.79000 812.0
3.80000 931.0
3.81000 1020.0
3.82000 1091.0
3.83000 1065.0
3.84000 1121.0
3.85000 1155.0
3.86000 1194.0
3.87000 1149.0
3.88000 1042.0
3.89000 1062.0
3.90000 939.0
3.91000 862.0
3.92000 770.0
3.93000 739.0
3.94000 617.0
3.95000 557.0
3.96000 505.0
3.97000 381.0
3.98000 395.0
3.99000 342.0
4.00000 298.0
4.01000 342.0
4.02000 330.0
4.03000 365.0
4.04000 381.0
4.05000 464.0
4.06000 537.0
4.07000 574.0
4.08000 639.0
4.09000 654.0
4.10000 711.0
4.11000 703.0
4.12000 753.0
4.13000 803.0
4.14000 742.0
4.15000 732.0
4.16000 712.0
4.17000 643.0
4.18000 655.0
4.19000 550.0
4.20000 497.0
4.21000 431.0
4.22000 366.0
4.23000 314.0
4.24000 275.0
4.25000 236.0
4.26000 229.0
4.27000 188.0
4.28000 209.0
4.29000 221.0
4.30000 220.0
4.31000 228.0
4.32000 254.0
4.33000 276.0
4.34000 323.0
4.35000 408.0
4.36000 389.0
4.37000 434.0
4.38000 488.0
4.39000 506.0
4.40000 489.0
4.41000 490.0
4.42000 508.0
4.43000 488.0
4.44000 478.0
4.45000 462.0
4.46000 413.0
4.47000 361.0
4.48000 373.0
4.49000 292.0
4.50000 251.0
4.51000 222.0
4.52000 187.0
4.53000 133.0
4.54000 153.0
4.55000 121.0
4.56000 109.0
4.57000 152.0
4.58000 154.0
4.59000 152.0
4.60000 155.0
4.61000 177.0
4.62000 217.0
4.63000 250.0
4.64000 307.0
4.65000 321.0
4.66000 346.0
4.67000 333.0
4.68000 379.0
4.69000 408.0
4.70000 419.0
4.71000 358.0
4.72000 318.0
4.73000 308.0
4.74000 296.0
4.75000 284.0
4.76000 257.0
4.77000 223.0
4.78000 159.0
4.79000 141.0
4.80000 150.0
4.81000 122.0
4.82000 103.0
4.83000 89.0
4.84000 82.0
4.85000 94.0
4.86000 77.0
4.87000 107.0
4.88000 115.0
4.89000 140.0
4.90000 189.0
4.91000 168.0
4.92000 217.0
4.93000 215.0
4.94000 233.0
4.95000 261.0
4.96000 277.0
4.97000 258.0
4.98000 290.0
4.99000 265.0
5.00000 274.0
5.01000 280.0
5.02000 234.0
5.03000 203.0
5.04000 199.0
5.05000 164.0
5.06000 138.0
5.07000 120.0
5.08000 97.0
5.09000 70.0
5.10000 65.0
5.11000 60.0
5.12000 60.0
5.13000 58.0
5.14000 70.0
5.15000 71.0
5.16000 96.0
5.17000 123.0
5.18000 115.0
5.19000 140.0
5.20000 148.0
5.21000 156.0
5.22000 211.0
5.23000 213.0
5.24000 196.0
5.25000 198.0
5.26000 218.0
5.27000 194.0
5.28000 181.0
5.29000 195.0
5.30000 189.0
5.31000 156.0
5.32000 139.0
5.33000 129.0
5.34000 96.0
5.35000 98.0
5.36000 58.0
5.37000 77.0
5.38000 48.0
5.39000 43.0
5.40000 42.0
5.41000 41.0
5.42000 54.0
5.43000 55.0
5.44000 55.0
5.45000 45.0
5.46000 93.0
5.47000 82.0
5.48000 111.0
5.49000 125.0
5.50000 125.0
5.51000 122.0
5.52000 151.0
5.53000 163.0
5.54000 148.0
5.55000 157.0
5.56000 143.0
5.57000 138.0
5.58000 118.0
5.59000 105.0
5.60000 90.0
5.61000 106.0
5.62000 88.0
5.63000 66.0
5.64000 69.0
5.65000 65.0
5.66000 44.0
5.67000 47.0
5.68000 36.0
5.69000 36.0
5.70000 41.0
5.71000 62.0
5.72000 47.0
5.73000 57.0
5.74000 58.0
5.75000 82.0
5.76000 70.0
5.77000 103.0
5.78000 111.0
5.79000 141.0
5.80000 139.0
5.81000 126.0
5.82000 136.0
5.83000 117.0
5.84000 124.0
5.85000 96.0
5.86000 109.0
5.87000 96.0
5.88000 92.0
5.89000 95.0
5.90000 82.0
5.91000 65.0
5.92000 61.0
5.93000 52.0
5.94000 33.0
5.95000 35.0
5.96000 30.0
5.97000 41.0
5.98000 33.0
5.99000 35.0
6.00000 36.0
6.01000 41.0
6.02000 71.0
6.03000 54.0
6.04000 74.0
6.05000 80.0
6.06000 91.0
6.07000 100.0
6.08000 91.0
6.09000 99.0
6.10000 90.0
6.11000 106.0
6.12000 84.0
6.13000 85.0
6.14000 94.0
6.15000 93.0
6.16000 70.0
6.17000 69.0
6.18000 66.0
6.19000 48.0
6.20000 43.0
6.21000 33.0
6.22000 34.0
6.23000 30.0
6.24000 22.0
6.25000 27.0
6.26000 20.0
6.27000 28.0
6.28000 33.0
6.29000 42.0
6.30000 48.0
6.31000 51.0
6.32000 55.0
6.33000 71.0
6.34000 62.0
6.35000 77.0
6.36000 65.0
6.37000 77.0
6.38000 83.0
6.39000 73.0
6.40000 76.0
6.41000 85.0
6.42000 75.0
6.43000 65.0
6.44000 68.0
6.45000 48.0
6.46000 49.0
6.47000 46.0
6.48000 40.0
6.49000 34.0
6.50000 37.0
6.51000 20.0
6.52000 22.0
6.53000 33.0
6.54000 22.0
6.55000 27.0
6.56000 32.0
6.57000 33.0
6.58000 39.0
6.59000 40.0
6.60000 68.0
6.61000 56.0
6.62000 64.0
6.63000 55.0
6.64000 66.0
6.65000 64.0
6.66000 74.0
6.67000 72.0
6.68000 71.0
6.69000 65.0
6.70000 75.0
6.71000 56.0
6.72000 55.0
6.73000 48.0
6.74000 29.0
6.75000 49.0
6.76000 42.0
6.77000 28.0
6.78000 19.0
6.79000 23.0
6.80000 19.0
6.81000 11.0
6.82000 30.0
6.83000 16.0
6.84000 30.0
6.85000 34.0
6.86000 42.0
6.87000 43.0
6.88000 55.0
6.89000 39.0
6.90000 48.0
6.91000 51.0
6.92000 39.0
6.93000 51.0
6.94000 59.0
6.95000 45.0
6.96000 61.0
6.97000 61.0
6.98000 62.0
6.99000 44.0
7.00000 43.0
7.01000 39.0
7.02000 41.0
7.03000 24.0
7.04000 33.0
7.05000 16.0
7.06000 21.0
7.07000 21.0
7.08000 16.0
7.09000 16.0
7.10000 16.0
7.11000 18.0
7.12000 23.0
7.13000 27.0
7.14000 40.0
7.15000 37.0
7.16000 36.0
7.17000 30.0
7.18000 59.0
7.19000 38.0
7.20000 43.0
7.21000 45.0
7.22000 55.0
7.23000 54.0
7.24000 48.0
7.25000 36.0
7.26000 39.0
7.27000 45.0
7.28000 36.0
7.29000 23.0
7.30000 28.0
7.31000 22.0
7.32000 23.0
7.33000 16.0
7.34000 21.0
7.35000 16.0
7.36000 22.0
7.37000 14.0
7.38000 17.0
7.39000 19.0
7.40000 29.0
7.41000 27.0
7.42000 34.0
7.43000 28.0
7.44000 31.0
7.45000 37.0
7.46000 44.0
7.47000 36.0
7.48000 26.0
7.49000 38.0
7.50000 47.0
7.51000 42.0
7.52000 29.0
7.53000 28.0
7.54000 39.0
7.55000 25.0
7.56000 23.0
7.57000 26.0
7.58000 31.0
7.59000 13.0
7.60000 15.0
7.61000 16.0
7.62000 18.0
7.63000 20.0
7.64000 14.0
7.65000 12.0
7.66000 14.0
7.67000 19.0
7.68000 24.0
7.69000 17.0
7.70000 17.0
7.71000 19.0
7.72000 27.0
7.73000 34.0
7.74000 30.0
7.75000 27.0
7.76000 35.0
7.77000 29.0
7.78000 23.0
7.79000 27.0
7.80000 40.0
7.81000 26.0
7.82000 27.0
7.83000 31.0
7.84000 26.0
7.85000 24.0
7.86000 13.0
7.87000 20.0
7.88000 12.0
7.89000 16.0
7.90000 15.0
7.91000 10.0
7.92000 15.0
7.93000 17.0
7.94000 17.0
7.95000 18.0
7.96000 13.0
7.97000 20.0
7.98000 25.0
7.99000 25.0
