0.26000 65455188.0
0.27000 67784712.0
0.28000 69946952.0
0.29000 72291544.0
0.30000 74614736.0
0.31000 76879000.0
0.32000 79130008.0
0.33000 81613696.0
0.34000 84142136.0
0.35000 86644360.0
0.36000 89022560.0
0.37000 91441448.0
0.38000 93956776.0
0.39000 96049552.0
0.40000 98148048.0
0.41000 99983720.0
0.42000 101988184.0
0.43000 103680696.0
0.44000 105701736.0
0.45000 107462208.0
0.46000 109024216.0
0.47000 110591648.0
0.48000 112457768.0
0.49000 113541144.0
0.50000 115419624.0
0.51000 116841776.0
0.52000 118545144.0
0.53000 119433064.0
0.54000 119956896.0
0.55000 119570504.0
0.56000 118717392.0
0.57000 117456336.0
0.58000 115679432.0
0.59000 112415264.0
0.60000 108051448.0
0.61000 101993608.0
0.62000 93704808.0
0.63000 84130384.0
0.64000 73734040.0
0.65000 64130536.0
0.66000 55905480.0
0.67000 49252528.0
0.68000 43139384.0
0.69000 37434180.0
0.70000 31984870.0
0.71000 28080384.0
0.72000 25448256.0
0.73000 24164896.0
0.74000 23469566.0
0.75000 22340672.0
0.76000 20781530.0
0.77000 18445530.0
0.78000 15595611.0
0.79000 13429773.0
0.80000 11916180.0
0.81000 11128820.0
0.82000 11002638.0
0.83000 11203427.0
0.84000 11432352.0
0.85000 11385359.0
0.86000 10905550.0
0.87000 10004095.0
0.88000 8853217.0
0.89000 7670399.0
0.90000 6681584.0
0.91000 6036652.0
0.92000 5779227.0
0.93000 5869557.0
0.94000 6163716.0
0.95000 6491400.0
0.96000 6696355.0
0.97000 6673881.0
0.98000 6380876.0
0.99000 5831996.0
1.00000 5145139.0
1.01000 4436861.0
1.02000 3824038.0
1.03000 3405917.0
1.04000 3221165.0
1.05000 3264992.0
1.06000 3476170.0
1.07000 3755004.0
1.08000 4002741.0
1.09000 4137553.0
1.10000 4107513.0
1.11000 3909817.0
1.12000 3570667.0
1.13000 3140998.0
1.14000 2709045.0
1.15000 2329756.0
1.16000 2059270.0
1.17000 1927518.0
1.18000 1935782.0
1.19000 2053836.0
1.20000 2244403.0
1.21000 2449144.0
1.22000 2618884.0
1.23000 2695769.0
1.24000 2668931.0
1.25000 2532614.0
1.26000 2304848.0
1.27000 2030666.0
1.28000 1748037.0
1.29000 1502306.0
1.30000 1327231.0
1.31000 1244425.0
1.32000 1250818.0
1.33000 1333179.0
1.34000 1464995.0
1.35000 1606740.0
1.36000 1726869.0
1.37000 1797064.0
1.38000 1806096.0
1.39000 1749246.0
1.40000 1625747.0
1.41000 1452203.0
1.42000 1260471.0
1.43000 1078746.0
1.44000 935256.0
1.45000 845401.0
1.46000 817842.0
1.47000 850997.0
1.48000 931762.0
1.49000 1034101.0
1.50000 1137997.0
1.51000 1217220.0
1.52000 1250129.0
1.53000 1231237.0
1.54000 1161166.0
1.55000 1052996.0
1.56000 921514.0
1.57000 783823.0
1.58000 661992.0
1.59000 571922.0
1.60000 522052.0
1.61000 514351.0
1.62000 548048.0
1.63000 605418.0
1.64000 672858.0
1.65000 734907.0
1.66000 778063.0
1.67000 793370.0
1.68000 777546.0
1.69000 726697.0
1.70000 654390.0
1.71000 572314.0
1.72000 489355.0
1.73000 417381.0
1.74000 365901.0
1.75000 334253.0
1.76000 330030.0
1.77000 352871.0
1.78000 394072.0
1.79000 443782.0
1.80000 493554.0
1.81000 533968.0
1.82000 555901.0
1.83000 558295.0
1.84000 538036.0
1.85000 499414.0
1.86000 443631.0
1.87000 383901.0
1.88000 329813.0
1.89000 285461.0
1.90000 258964.0
1.91000 253884.0
1.92000 267438.0
1.93000 299425.0
1.94000 342736.0
1.95000 388950.0
1.96000 430330.0
1.97000 463114.0
1.98000 477730.0
1.99000 471900.0
2.00000 447172.0
2.01000 405220.0
2.02000 356587.0
2.03000 303687.0
2.04000 257987.0
2.05000 224330.0
2.06000 206658.0
2.07000 208140.0
2.08000 227220.0
2.09000 256662.0
2.10000 292364.0
2.11000 325005.0
2.12000 352164.0
2.13000 365021.0
2.14000 364466.0
2.15000 350316.0
2.16000 323791.0
2.17000 288660.0
2.18000 249917.0
2.19000 215061.0
2.20000 185119.0
2.21000 166115.0
2.22000 160176.0
2.23000 165683.0
2.24000 183586.0
2.25000 208576.0
2.26000 234151.0
2.27000 259385.0
2.28000 276720.0
2.29000 283861.0
2.30000 279950.0
2.31000 266201.0
2.32000 243613.0
2.33000 215414.0
2.34000 185380.0
2.35000 158466.0
2.36000 137414.0
2.37000 125166.0
2.38000 122813.0
2.39000 128391.0
2.40000 141692.0
2.41000 161183.0
2.42000 181140.0
2.43000 198432.0
2.44000 210474.0
2.45000 216065.0
2.46000 211773.0
2.47000 199041.0
2.48000 179655.0
2.49000 157332.0
2.50000 134869.0
2.51000 113697.0
2.52000 99156.0
2.53000 90702.0
2.54000 89123.0
2.55000 93111.0
2.56000 101455.0
2.57000 112078.0
2.58000 122940.0
2.59000 131461.0
2.60000 134469.0
2.61000 132599.0
2.62000 125599.0
2.63000 114522.0
2.64000 100863.0
2.65000 87408.0
2.66000 73873.0
2.67000 63428.0
2.68000 56561.0
2.69000 53886.0
2.70000 54999.0
2.71000 59443.0
2.72000 65708.0
2.73000 73090.0
2.74000 79103.0
2.75000 85719.0
2.76000 89359.0
2.77000 88603.0
2.78000 86059.0
2.79000 79425.0
2.80000 71644.0
2.81000 62217.0
2.82000 54155.0
2.83000 47935.0
2.84000 43846.0
2.85000 42745.0
2.86000 44882.0
2.87000 49428.0
2.88000 55728.0
2.89000 62463.0
2.90000 69012.0
2.91000 75021.0
2.92000 79849.0
2.93000 81798.0
2.94000 80398.0
2.95000 76486.0
2.96000 70864.0
2.97000 62874.0
2.98000 56125.0
2.99000 50325.0
3.00000 45968.0
3.01000 45198.0
3.02000 46682.0
3.03000 51028.0
3.04000 56246.0
3.05000 61964.0
3.06000 66752.0
3.07000 70109.0
3.08000 71390.0
3.09000 71067.0
3.10000 68285.0
3.11000 63741.0
3.12000 57445.0
3.13000 50665.0
3.14000 44466.0
3.15000 41009.0
3.16000 38001.0
3.17000 37904.0
3.18000 39258.0
3.19000 42873.0
3.20000 47183.0
3.21000 51462.0
3.22000 55467.0
3.23000 57930.0
3.24000 58678.0
3.25000 57965.0
3.26000 55694.0
3.27000 52426.0
3.28000 47524.0
3.29000 42334.0
3.30000 37671.0
3.31000 33699.0
3.32000 31445.0
3.33000 30782.0
3.34000 31758.0
3.35000 34378.0
3.36000 37460.0
3.37000 40639.0
3.38000 43938.0
3.39000 45489.0
3.40000 46411.0
3.41000 45136.0
3.42000 42948.0
3.43000 39924.0
3.44000 36413.0
3.45000 33000.0
3.46000 29290.0
3.47000 26564.0
3.48000 24734.0
3.49000 24083.0
3.50000 24363.0
3.51000 25589.0
3.52000 27608.0
3.53000 29164.0
3.54000 30755.0
3.55000 31131.0
3.56000 31099.0
3.57000 29097.0
3.58000 26613.0
3.59000 23487.0
3.60000 20683.0
3.61000 17995.0
3.62000 15919.0
3.63000 14179.0
3.64000 13556.0
3.65000 13374.0
3.66000 13788.0
3.67000 14901.0
3.68000 15843.0
3.69000 16801.0
3.70000 17899.0
3.71000 18304.0
3.72000 18401.0
3.73000 17691.0
3.74000 16720.0
3.75000 15003.0
3.76000 13488.0
3.77000 12052.0
3.78000 10766.0
3.79000 9964.0
3.80000 9597.0
3.81000 9862.0
3.82000 10467.0
3.83000 11371.0
3.84000 12409.0
3.85000 13319.0
3.86000 14357.0
3.87000 14967.0
3.88000 15485.0
3.89000 15565.0
3.90000 15105.0
3.91000 14505.0
3.92000 13373.0
3.93000 12354.0
3.94000 11676.0
3.95000 11099.0
3.96000 10886.0
3.97000 11167.0
3.98000 11618.0
3.99000 12754.0
4.00000 13861.0
4.01000 14960.0
4.02000 15902.0
4.03000 16275.0
4.04000 16676.0
4.05000 16142.0
4.06000 15561.0
4.07000 14197.0
4.08000 13171.0
4.09000 11704.0
4.10000 10537.0
4.11000 9898.0
4.12000 9738.0
4.13000 9830.0
4.14000 10195.0
4.15000 10858.0
4.16000 11636.0
4.17000 12519.0
4.18000 13095.0
4.19000 13676.0
4.20000 13724.0
4.21000 13353.0
4.22000 12918.0
4.23000 12255.0
4.24000 11181.0
4.25000 10392.0
4.26000 9347.0
4.27000 8909.0
4.28000 8453.0
4.29000 8429.0
4.30000 8578.0
4.31000 9050.0
4.32000 9626.0
4.33000 10121.0
4.34000 10400.0
4.35000 10779.0
4.36000 10665.0
4.37000 10694.0
4.38000 10114.0
4.39000 9520.0
4.40000 8908.0
4.41000 8178.0
4.42000 7393.0
4.43000 7065.0
4.44000 6740.0
4.45000 6593.0
4.46000 6801.0
4.47000 7101.0
4.48000 7204.0
4.49000 7700.0
4.50000 7776.0
4.51000 7826.0
4.52000 7753.0
4.53000 7355.0
4.54000 6915.0
4.55000 6206.0
4.56000 5573.0
4.57000 4896.0
4.58000 4532.0
4.59000 4064.0
4.60000 3854.0
4.61000 3656.0
4.62000 3610.0
4.63000 3740.0
4.64000 3781.0
4.65000 3947.0
4.66000 4030.0
4.67000 4106.0
4.68000 4079.0
4.69000 3765.0
4.70000 3653.0
4.71000 3373.0
4.72000 3188.0
4.73000 2921.0
4.74000 2623.0
4.75000 2648.0
4.76000 2555.0
4.77000 2582.0
4.78000 2531.0
4.79000 2582.0
4.80000 2774.0
4.81000 2892.0
4.82000 2982.0
4.83000 3132.0
4.84000 3321.0
4.85000 3054.0
4.86000 3182.0
4.87000 3051.0
4.88000 2850.0
4.89000 2776.0
4.90000 2733.0
4.91000 2705.0
4.92000 2701.0
4.93000 2830.0
4.94000 2945.0
4.95000 3122.0
4.96000 3288.0
4.97000 3636.0
4.98000 3648.0
4.99000 3734.0
5.00000 3717.0
5.01000 3749.0
5.02000 3609.0
5.03000 3595.0
5.04000 3300.0
5.05000 2993.0
5.06000 3034.0
5.07000 2927.0
5.08000 2852.0
5.09000 2786.0
5.10000 2922.0
5.11000 3006.0
5.12000 3073.0
5.13000 3158.0
5.14000 3291.0
5.15000 3242.0
5.16000 3214.0
5.17000 3172.0
5.18000 2989.0
5.19000 3032.0
5.20000 2831.0
5.21000 2751.0
5.22000 2532.0
5.23000 2659.0
5.24000 2590.0
5.25000 2499.0
5.26000 2564.0
5.27000 2719.0
5.28000 2772.0
5.29000 2810.0
5.30000 2899.0
5.31000 2860.0
5.32000 2854.0
5.33000 2703.0
5.34000 2502.0
5.35000 2471.0
5.36000 2385.0
5.37000 2176.0
5.38000 2152.0
5.39000 2045.0
5.40000 1998.0
5.41000 2088.0
5.42000 2015.0
5.43000 2125.0
5.44000 2263.0
5.45000 2208.0
5.46000 2316.0
5.47000 2252.0
5.48000 2257.0
5.49000 2213.0
5.50000 2047.0
5.51000 1891.0
5.52000 1662.0
5.53000 1580.0
5.54000 1414.0
5.55000 1455.0
5.56000 1342.0
5.57000 1354.0
5.58000 1286.0
5.59000 1289.0
5.60000 1310.0
5.61000 1330.0
5.62000 1213.0
5.63000 1240.0
5.64000 1219.0
5.65000 1100.0
5.66000 1074.0
5.67000 1021.0
5.68000 934.0
5.69000 876.0
5.70000 799.0
5.71000 840.0
5.72000 805.0
5.73000 920.0
5.74000 840.0
5.75000 873.0
5.76000 928.0
5.77000 916.0
5.78000 924.0
5.79000 913.0
5.80000 914.0
5.81000 881.0
5.82000 857.0
5.83000 820.0
5.84000 805.0
5.85000 757.0
5.86000 725.0
5.87000 744.0
5.88000 828.0
5.89000 777.0
5.90000 821.0
5.91000 890.0
5.92000 910.0
5.93000 933.0
5.94000 946.0
5.95000 995.0
5.96000 995.0
5.97000 979.0
5.98000 987.0
5.99000 938.0
6.00000 914.0
6.01000 938.0
6.02000 901.0
6.03000 838.0
6.04000 857.0
6.05000 798.0
6.06000 878.0
6.07000 916.0
6.08000 862.0
6.09000 926.0
6.10000 876.0
6.11000 946.0
6.12000 848.0
6.13000 861.0
6.14000 865.0
6.15000 819.0
6.16000 795.0
6.17000 796.0
6.18000 760.0
6.19000 757.0
6.20000 739.0
6.21000 693.0
6.22000 719.0
6.23000 776.0
6.24000 757.0
6.25000 760.0
6.26000 801.0
6.27000 765.0
6.28000 779.0
6.29000 741.0
6.30000 711.0
6.31000 694.0
6.32000 688.0
6.33000 615.0
6.34000 654.0
6.35000 585.0
6.36000 594.0
6.37000 579.0
6.38000 614.0
6.39000 589.0
6.40000 646.0
6.41000 591.0
6.42000 638.0
6.43000 662.0
6.44000 649.0
6.45000 621.0
6.46000 593.0
6.47000 576.0
6.48000 567.0
6.49000 511.0
6.50000 468.0
6.51000 492.0
6.52000 445.0
6.53000 461.0
6.54000 429.0
6.55000 407.0
6.56000 416.0
6.57000 396.0
6.58000 390.0
6.59000 394.0
6.60000 363.0
6.61000 376.0
6.62000 367.0
6.63000 324.0
6.64000 313.0
6.65000 319.0
6.66000 289.0
6.67000 306.0
6.68000 283.0
6.69000 297.0
6.70000 312.0
6.71000 271.0
6.72000 280.0
6.73000 302.0
6.74000 262.0
6.75000 287.0
6.76000 261.0
6.77000 274.0
6.78000 277.0
6.79000 281.0
6.80000 272.0
6.81000 229.0
6.82000 273.0
6.83000 271.0
6.84000 274.0
6.85000 252.0
6.86000 283.0
6.87000 278.0
6.88000 286.0
6.89000 291.0
6.90000 284.0
6.91000 293.0
6.92000 284.0
6.93000 296.0
6.94000 313.0
6.95000 328.0
6.96000 306.0
6.97000 320.0
6.98000 313.0
6.99000 362.0
7.00000 337.0
7.01000 353.0
7.02000 293.0
7.03000 330.0
7.04000 343.0
7.05000 311.0
7.06000 316.0
7.07000 323.0
7.08000 340.0
7.09000 295.0
7.10000 291.0
7.11000 308.0
7.12000 310.0
7.13000 291.0
7.14000 301.0
7.15000 295.0
7.16000 307.0
7.17000 328.0
7.18000 329.0
7.19000 310.0
7.20000 287.0
7.21000 324.0
7.22000 320.0
7.23000 350.0
7.24000 283.0
7.25000 299.0
7.26000 311.0
7.27000 306.0
7.28000 320.0
7.29000 286.0
7.30000 286.0
7.31000 316.0
7.32000 285.0
7.33000 275.0
7.34000 301.0
7.35000 288.0
7.36000 283.0
7.37000 265.0
7.38000 250.0
7.39000 277.0
7.40000 280.0
7.41000 269.0
7.42000 239.0
7.43000 267.0
7.44000 274.0
7.45000 266.0
7.46000 276.0
7.47000 281.0
7.48000 282.0
7.49000 279.0
7.50000 240.0
7.51000 277.0
7.52000 233.0
7.53000 235.0
7.54000 240.0
7.55000 214.0
7.56000 216.0
7.57000 223.0
7.58000 229.0
7.59000 201.0
7.60000 207.0
7.61000 190.0
7.62000 200.0
7.63000 189.0
7.64000 186.0
7.65000 221.0
7.66000 175.0
7.67000 190.0
7.68000 200.0
7.69000 191.0
7.70000 172.0
7.71000 190.0
7.72000 191.0
7.73000 195.0
7.74000 184.0
7.75000 218.0
7.76000 185.0
7.77000 189.0
7.78000 188.0
7.79000 192.0
7.80000 171.0
7.81000 214.0
7.82000 178.0
7.83000 173.0
7.84000 190.0
7.85000 184.0
7.86000 198.0
7.87000 196.0
7.88000 171.0
7.89000 179.0
7.90000 182.0
7.91000 172.0
7.92000 203.0
7.93000 200.0
7.94000 206.0
7.95000 189.0
7.96000 212.0
7.97000 198.0
7.98000 180.0
7.99000 226.0
8.00000 217.0
8.01000 231.0
8.02000 224.0
8.03000 216.0
8.04000 204.0
8.05000 215.0
8.06000 196.0
8.07000 198.0
8.08000 199.0
8.09000 190.0
8.10000 238.0
8.11000 180.0
8.12000 214.0
8.13000 213.0
8.14000 214.0
8.15000 181.0
8.16000 204.0
8.17000 218.0
8.18000 190.0
8.19000 191.0
8.20000 201.0
8.21000 193.0
8.22000 205.0
8.23000 196.0
8.24000 216.0
