0.51000 21916452.0
0.52000 22367648.0
0.53000 22786894.0
0.54000 23258888.0
0.55000 23666832.0
0.56000 24035896.0
0.57000 24470516.0
0.58000 24873638.0
0.59000 25049656.0
0.60000 25587352.0
0.61000 25804060.0
0.62000 26221650.0
0.63000 26406708.0
0.64000 26708260.0
0.65000 26692586.0
0.66000 26767936.0
0.67000 26572178.0
0.68000 26070346.0
0.69000 25189806.0
0.70000 23660654.0
0.71000 21371370.0
0.72000 18247810.0
0.73000 14469460.0
0.74000 10493994.0
0.75000 7162771.0
0.76000 4923369.0
0.77000 4012086.0
0.78000 3848601.0
0.79000 4289593.0
0.80000 4784115.0
0.81000 5335082.0
0.82000 5322724.0
0.83000 5010926.0
0.84000 4478051.0
0.85000 3682023.0
0.86000 2973084.0
0.87000 2289228.0
0.88000 1686041.0
0.89000 1219655.0
0.90000 896917.0
0.91000 721902.0
0.92000 672328.0
0.93000 721093.0
0.94000 836678.0
0.95000 982592.0
0.96000 1131354.0
0.97000 1256627.0
0.98000 1343982.0
0.99000 1383200.0
1.00000 1375317.0
1.01000 1316218.0
1.02000 1218126.0
1.03000 1089173.0
1.04000 940606.0
1.05000 786505.0
1.06000 637572.0
1.07000 504864.0
1.08000 389992.0
1.09000 301667.0
1.10000 240721.0
1.11000 205544.0
1.12000 194094.0
1.13000 201707.0
1.14000 222986.0
1.15000 255963.0
1.16000 292994.0
1.17000 328502.0
1.18000 362286.0
1.19000 388620.0
1.20000 403449.0
1.21000 411982.0
1.22000 407890.0
1.23000 394209.0
1.24000 371815.0
1.25000 340508.0
1.26000 307667.0
1.27000 268708.0
1.28000 230317.0
1.29000 192146.0
1.30000 158626.0
1.31000 129235.0
1.32000 104748.0
1.33000 87073.0
1.34000 74962.0
1.35000 68698.0
1.36000 68015.0
1.37000 71379.0
1.38000 78134.0
1.39000 87009.0
1.40000 95774.0
1.41000 107351.0
1.42000 115157.0
1.43000 122937.0
1.44000 128811.0
1.45000 131472.0
1.46000 130907.0
1.47000 127679.0
1.48000 122330.0
1.49000 115036.0
1.50000 105560.0
1.51000 94212.0
1.52000 82405.0
1.53000 71620.0
1.54000 60291.0
1.55000 51297.0
1.56000 42562.0
1.57000 35914.0
1.58000 31239.0
1.59000 27976.0
1.60000 26451.0
1.61000 26493.0
1.62000 27723.0
1.63000 29674.0
1.64000 32185.0
1.65000 34862.0
1.66000 37553.0
1.67000 40593.0
1.68000 42712.0
1.69000 44026.0
1.70000 45031.0
1.71000 44738.0
1.72000 44110.0
1.73000 42439.0
1.74000 40731.0
1.75000 37616.0
1.76000 34458.0
1.77000 31392.0
1.78000 27920.0
1.79000 25161.0
1.80000 21965.0
1.81000 18993.0
1.82000 16374.0
1.83000 14675.0
1.84000 13251.0
1.85000 12127.0
1.86000 11686.0
1.87000 11402.0
1.88000 11378.0
1.89000 11651.0
1.90000 12615.0
1.91000 13357.0
1.92000 14124.0
1.93000 14509.0
1.94000 15281.0
1.95000 15962.0
1.96000 15902.0
1.97000 16359.0
1.98000 16271.0
1.99000 15665.0
2.00000 15405.0
2.01000 14370.0
2.02000 13593.0
2.03000 12652.0
2.04000 11400.0
2.05000 10256.0
2.06000 9231.0
2.07000 8276.0
2.08000 7588.0
2.09000 6804.0
2.10000 6130.0
2.11000 5709.0
2.12000 5338.0
2.13000 5330.0
2.14000 5368.0
2.15000 5298.0
2.16000 5537.0
2.17000 5615.0
2.18000 5828.0
2.19000 5901.0
2.20000 6212.0
2.21000 6256.0
2.22000 6443.0
2.23000 6589.0
2.24000 6299.0
2.25000 6268.0
2.26000 6049.0
2.27000 5820.0
2.28000 5556.0
2.29000 5104.0
2.30000 4972.0
2.31000 4542.0
2.32000 4088.0
2.33000 3862.0
2.34000 3658.0
2.35000 3213.0
2.36000 3087.0
2.37000 2888.0
2.38000 2784.0
2.39000 2563.0
2.40000 2496.0
2.41000 2618.0
2.42000 2556.0
2.43000 2619.0
2.44000 2693.0
2.45000 2646.0
2.46000 2775.0
2.47000 2759.0
2.48000 2745.0
2.49000 2835.0
2.50000 2730.0
2.51000 2712.0
2.52000 2674.0
2.53000 2498.0
2.54000 2393.0
2.55000 2364.0
2.56000 2247.0
2.57000 2035.0
2.58000 1946.0
2.59000 1716.0
2.60000 1650.0
2.61000 1565.0
2.62000 1562.0
2.63000 1415.0
2.64000 1362.0
2.65000 1335.0
2.66000 1334.0
2.67000 1321.0
2.68000 1259.0
2.69000 1295.0
2.70000 1250.0
2.71000 1280.0
2.72000 1325.0
2.73000 1383.0
2.74000 1301.0
2.75000 1318.0
2.76000 1354.0
2.77000 1277.0
2.78000 1262.0
2.79000 1219.0
2.80000 1210.0
2.81000 1158.0
2.82000 1072.0
2.83000 1007.0
2.84000 911.0
2.85000 898.0
2.86000 867.0
2.87000 836.0
2.88000 797.0
2.89000 749.0
2.90000 778.0
2.91000 728.0
2.92000 664.0
2.93000 730.0
2.94000 720.0
2.95000 724.0
2.96000 648.0
2.97000 708.0
2.98000 720.0
2.99000 640.0
3.00000 694.0
3.01000 725.0
3.02000 627.0
3.03000 611.0
3.04000 654.0
3.05000 587.0
3.06000 611.0
3.07000 552.0
3.08000 528.0
3.09000 557.0
3.10000 472.0
3.11000 473.0
3.12000 445.0
3.13000 407.0
3.14000 413.0
3.15000 431.0
3.16000 381.0
3.17000 393.0
3.18000 398.0
3.19000 404.0
3.20000 378.0
3.21000 371.0
3.22000 382.0
3.23000 372.0
3.24000 405.0
3.25000 362.0
3.26000 370.0
3.27000 373.0
3.28000 405.0
3.29000 359.0
3.30000 367.0
3.31000 315.0
3.32000 316.0
3.33000 336.0
3.34000 309.0
3.35000 273.0
3.36000 297.0
3.37000 258.0
3.38000 256.0
3.39000 248.0
3.40000 235.0
3.41000 224.0
3.42000 213.0
3.43000 196.0
3.44000 210.0
3.45000 193.0
3.46000 229.0
3.47000 206.0
3.48000 211.0
3.49000 232.0
3.50000 181.0
3.51000 202.0
3.52000 242.0
3.53000 229.0
3.54000 214.0
3.55000 224.0
3.56000 212.0
3.57000 210.0
3.58000 206.0
3.59000 217.0
3.60000 225.0
3.61000 195.0
3.62000 187.0
3.63000 178.0
3.64000 180.0
3.65000 162.0
3.66000 162.0
3.67000 170.0
3.68000 148.0
3.69000 144.0
3.70000 144.0
3.71000 130.0
3.72000 130.0
3.73000 140.0
3.74000 128.0
3.75000 138.0
3.76000 129.0
3.77000 138.0
3.78000 142.0
3.79000 139.0
3.80000 121.0
3.81000 158.0
3.82000 119.0
3.83000 139.0
3.84000 138.0
3.85000 140.0
3.86000 122.0
3.87000 120.0
3.88000 105.0
3.89000 127.0
3.90000 113.0
3.91000 111.0
3.92000 108.0
3.93000 109.0
3.94000 111.0
3.95000 98.0
3.96000 92.0
3.97000 106.0
3.98000 106.0
3.99000 83.0
4.00000 93.0
4.01000 96.0
4.02000 91.0
4.03000 81.0
4.04000 92.0
4.05000 112.0
4.06000 96.0
4.07000 104.0
4.08000 88.0
4.09000 107.0
4.10000 92.0
4.11000 83.0
4.12000 108.0
4.13000 96.0
4.14000 78.0
4.15000 92.0
4.16000 71.0
4.17000 95.0
4.18000 77.0
4.19000 76.0
4.20000 65.0
4.21000 93.0
4.22000 80.0
4.23000 67.0
4.24000 77.0
4.25000 56.0
4.26000 68.0
4.27000 63.0
4.28000 72.0
4.29000 59.0
4.30000 71.0
4.31000 67.0
4.32000 68.0
4.33000 60.0
4.34000 84.0
4.35000 61.0
4.36000 75.0
4.37000 68.0
4.38000 67.0
4.39000 73.0
4.40000 73.0
4.41000 75.0
4.42000 74.0
4.43000 57.0
4.44000 72.0
4.45000 62.0
4.46000 61.0
4.47000 58.0
4.48000 55.0
4.49000 62.0
4.50000 50.0
4.51000 64.0
4.52000 50.0
4.53000 46.0
4.54000 61.0
4.55000 57.0
4.56000 53.0
4.57000 57.0
4.58000 48.0
4.59000 69.0
4.60000 61.0
4.61000 49.0
4.62000 49.0
4.63000 42.0
4.64000 58.0
4.65000 57.0
4.66000 74.0
4.67000 61.0
4.68000 65.0
4.69000 51.0
4.70000 51.0
4.71000 42.0
4.72000 61.0
4.73000 52.0
4.74000 55.0
4.75000 66.0
4.76000 54.0
4.77000 49.0
4.78000 48.0
4.79000 44.0
4.80000 38.0
4.81000 25.0
4.82000 46.0
4.83000 53.0
4.84000 42.0
4.85000 59.0
4.86000 43.0
4.87000 41.0
4.88000 39.0
4.89000 40.0
4.90000 43.0
4.91000 52.0
4.92000 45.0
4.93000 41.0
4.94000 48.0
4.95000 61.0
4.96000 43.0
4.97000 35.0
4.98000 42.0
4.99000 48.0
5.00000 49.0
5.01000 52.0
5.02000 50.0
5.03000 51.0
5.04000 45.0
5.05000 45.0
5.06000 41.0
5.07000 39.0
5.08000 30.0
5.09000 44.0
5.10000 33.0
5.11000 38.0
5.12000 32.0
5.13000 46.0
5.14000 39.0
5.15000 26.0
5.16000 36.0
5.17000 44.0
5.18000 39.0
5.19000 20.0
5.20000 35.0
5.21000 42.0
5.22000 38.0
5.23000 38.0
5.24000 37.0
5.25000 28.0
5.26000 30.0
5.27000 36.0
5.28000 35.0
5.29000 38.0
5.30000 34.0
5.31000 32.0
5.32000 30.0
5.33000 31.0
5.34000 36.0
5.35000 37.0
5.36000 38.0
5.37000 27.0
5.38000 24.0
5.39000 43.0
5.40000 34.0
5.41000 38.0
5.42000 42.0
5.43000 32.0
5.44000 29.0
5.45000 31.0
5.46000 34.0
5.47000 42.0
5.48000 43.0
5.49000 32.0
5.50000 29.0
5.51000 35.0
5.52000 31.0
5.53000 33.0
5.54000 44.0
5.55000 26.0
5.56000 31.0
5.57000 40.0
5.58000 37.0
5.59000 34.0
5.60000 26.0
5.61000 32.0
5.62000 33.0
5.63000 42.0
5.64000 38.0
5.65000 47.0
5.66000 30.0
5.67000 39.0
5.68000 36.0
5.69000 26.0
5.70000 40.0
5.71000 33.0
5.72000 38.0
5.73000 29.0
5.74000 36.0
5.75000 36.0
5.76000 27.0
5.77000 21.0
5.78000 27.0
5.79000 39.0
5.80000 42.0
5.81000 29.0
5.82000 35.0
5.83000 25.0
5.84000 23.0
5.85000 21.0
5.86000 31.0
5.87000 31.0
5.88000 31.0
5.89000 29.0
5.90000 28.0
5.91000 34.0
5.92000 44.0
5.93000 29.0
5.94000 34.0
5.95000 28.0
5.96000 36.0
5.97000 41.0
5.98000 31.0
5.99000 25.0
6.00000 28.0
6.01000 23.0
6.02000 23.0
6.03000 20.0
6.04000 27.0
6.05000 36.0
6.06000 26.0
6.07000 25.0
6.08000 17.0
6.09000 37.0
6.10000 28.0
6.11000 30.0
6.12000 41.0
6.13000 25.0
6.14000 29.0
6.15000 25.0
6.16000 37.0
6.17000 30.0
6.18000 27.0
6.19000 33.0
6.20000 36.0
6.21000 27.0
6.22000 26.0
6.23000 26.0
6.24000 30.0
6.25000 28.0
6.26000 27.0
6.27000 31.0
6.28000 27.0
6.29000 23.0
6.30000 29.0
6.31000 26.0
6.32000 31.0
6.33000 33.0
6.34000 24.0
6.35000 28.0
6.36000 33.0
6.37000 25.0
6.38000 34.0
6.39000 30.0
6.40000 32.0
6.41000 28.0
6.42000 27.0
6.43000 25.0
6.44000 27.0
6.45000 18.0
6.46000 38.0
6.47000 23.0
6.48000 27.0
6.49000 27.0
6.50000 33.0
6.51000 16.0
6.52000 19.0
6.53000 30.0
6.54000 28.0
6.55000 28.0
6.56000 27.0
6.57000 22.0
6.58000 31.0
6.59000 22.0
6.60000 27.0
6.61000 26.0
6.62000 30.0
6.63000 33.0
6.64000 19.0
6.65000 32.0
6.66000 21.0
6.67000 34.0
6.68000 31.0
6.69000 32.0
6.70000 27.0
6.71000 31.0
6.72000 23.0
6.73000 27.0
6.74000 29.0
6.75000 32.0
6.76000 20.0
6.77000 32.0
6.78000 32.0
6.79000 23.0
6.80000 34.0
6.81000 27.0
6.82000 17.0
6.83000 30.0
6.84000 36.0
6.85000 28.0
6.86000 37.0
6.87000 26.0
6.88000 17.0
6.89000 29.0
6.90000 19.0
6.91000 33.0
6.92000 19.0
6.93000 29.0
6.94000 30.0
6.95000 29.0
6.96000 27.0
6.97000 18.0
6.98000 18.0
6.99000 23.0
7.00000 22.0
7.01000 22.0
7.02000 21.0
7.03000 23.0
7.04000 26.0
7.05000 22.0
7.06000 23.0
7.07000 29.0
7.08000 33.0
7.09000 26.0
7.10000 19.0
7.11000 27.0
7.12000 23.0
7.13000 21.0
7.14000 19.0
7.15000 26.0
7.16000 25.0
7.17000 16.0
7.18000 19.0
7.19000 24.0
7.20000 21.0
7.21000 23.0
7.22000 32.0
7.23000 30.0
7.24000 31.0
7.25000 25.0
7.26000 20.0
7.27000 28.0
7.28000 24.0
7.29000 26.0
7.30000 20.0
7.31000 24.0
7.32000 23.0
7.33000 18.0
7.34000 24.0
7.35000 31.0
7.36000 32.0
7.37000 24.0
7.38000 32.0
7.39000 25.0
7.40000 21.0
7.41000 22.0
7.42000 26.0
7.43000 20.0
7.44000 26.0
7.45000 23.0
7.46000 24.0
7.47000 22.0
7.48000 31.0
7.49000 23.0
7.50000 21.0
7.51000 22.0
7.52000 17.0
7.53000 25.0
7.54000 27.0
7.55000 26.0
7.56000 19.0
7.57000 16.0
7.58000 22.0
7.59000 22.0
7.60000 16.0
7.61000 28.0
7.62000 28.0
7.63000 22.0
7.64000 17.0
7.65000 26.0
7.66000 18.0
7.67000 25.0
7.68000 27.0
7.69000 20.0
7.70000 23.0
7.71000 32.0
7.72000 21.0
7.73000 25.0
7.74000 26.0
7.75000 14.0
7.76000 18.0
7.77000 21.0
7.78000 15.0
7.79000 23.0
7.80000 27.0
7.81000 21.0
7.82000 23.0
7.83000 13.0
7.84000 19.0
7.85000 20.0
7.86000 19.0
7.87000 22.0
7.88000 16.0
7.89000 15.0
7.90000 29.0
7.91000 21.0
7.92000 21.0
7.93000 32.0
7.94000 30.0
7.95000 21.0
7.96000 24.0
7.97000 22.0
7.98000 11.0
7.99000 34.0
